lambda_vac(A),Flux(10^-16^erg/s/cm2/{AA})
4000.0,0.06239228832520736
4000.32,0.0594323038979617
4000.6400000000003,0.05188584737445078
4000.9600000000005,0.04111993210281414
4001.2800000000007,0.029250066572384093
4001.600000000001,0.018466251075460974
4001.920000000001,0.0102670952583307
4002.240000000001,0.004984640310271638
4002.5600000000013,0.002101925729737867
4002.8800000000015,0.0007697012134909857
4003.2000000000016,0.00024131059879873144
4003.520000000002,6.414495984949845e-05
4003.840000000002,1.4274730113080289e-05
4004.160000000002,4.366197797538371e-08
4004.4800000000023,4.2281206124551334e-16
4004.8000000000025,2.4152146631732338e-32
4005.1200000000026,1.602371567975263e-20
4005.440000000003,5.630609166842593e-06
4005.760000000003,3.699996853902879e-05
4006.080000000003,0.00014780973436672197
4006.4000000000033,0.0004982726241974681
4006.7200000000034,0.0014573013316303755
4007.0400000000036,0.0036682877019488893
4007.3600000000038,0.008035107152377163
4007.680000000004,0.01534722306427353
4008.000000000004,0.025687435203028533
4008.3200000000043,0.03812104795350105
4008.6400000000044,0.05089031263247053
4008.9600000000046,0.06244958025152524
4009.2800000000047,0.07230139445346591
4009.600000000005,0.08081461571065422
4009.920000000005,0.0880474058625666
4010.2400000000052,0.09300092985537646
4010.5600000000054,0.09405467953314185
4010.8800000000056,0.09040640464539071
4011.2000000000057,0.08296861955816338
4011.520000000006,0.07385848751185543
4011.840000000006,0.06518443098705226
4012.160000000006,0.05805159605563685
4012.4800000000064,0.05251828000500424
4012.8000000000065,0.04817182723783152
4013.1200000000067,0.04478138130794429
4013.440000000007,0.042410704355945544
4013.760000000007,0.04131612015939861
4014.080000000007,0.041715468891027126
4014.4000000000074,0.04354300339475115
4014.7200000000075,0.04613969763995843
4015.0400000000077,0.048200083718215374
4015.360000000008,0.04850711099933555
4015.680000000008,0.04689520417333716
4016.000000000008,0.04455012140174352
4016.3200000000083,0.043034215924898554
4016.6400000000085,0.04295814747980842
4016.9600000000087,0.043663181716808226
4017.280000000009,0.043944733530170886
4017.600000000009,0.04299428394314412
4017.920000000009,0.04068021447771852
4018.2400000000093,0.037274593006230705
4018.5600000000095,0.033175872378523104
4018.8800000000097,0.0290136009920994
4019.20000000001,0.025781048877370375
4019.52000000001,0.02461381084321719
4019.84000000001,0.02611320471241393
4020.1600000000103,0.029888804381209305
4020.4800000000105,0.0345955490981631
4020.8000000000106,0.03864006341880047
4021.120000000011,0.04091438246495757
4021.440000000011,0.04122873810942188
4021.760000000011,0.039974386813369324
4022.0800000000113,0.037654315586148
4022.4000000000115,0.034500559133719126
4022.7200000000116,0.030580594892306582
4023.040000000012,0.02624121177481337
4023.360000000012,0.022342453914153026
4023.680000000012,0.020039834401397793
4024.0000000000123,0.020182889266220423
4024.3200000000124,0.02279415829977833
4024.6400000000126,0.026933394848506115
4024.9600000000128,0.03109557997459939
4025.280000000013,0.03377499044105296
4025.600000000013,0.03408707370906407
4025.9200000000133,0.03210235242838529
4026.2400000000134,0.028833781768572705
4026.5600000000136,0.025538896514682767
4026.8800000000138,0.023006154696654773
4027.200000000014,0.02121505088116888
4027.520000000014,0.01969272847401828
4027.8400000000142,0.018181022294111535
4028.1600000000144,0.017076107102118314
4028.4800000000146,0.01734793601227263
4028.8000000000147,0.01984442238874693
4029.120000000015,0.024543096730599234
4029.440000000015,0.030107431867010374
4029.760000000015,0.034460854602693804
4030.0800000000154,0.03585888761513895
4030.4000000000156,0.03380959092851139
4030.7200000000157,0.029119058595562432
4031.040000000016,0.02336855250246267
4031.360000000016,0.01810530209958318
4031.680000000016,0.014346769518284992
4032.0000000000164,0.012334849724823599
4032.3200000000165,0.011696745781649188
4032.6400000000167,0.011753177455773017
4032.960000000017,0.011916786873085864
4033.280000000017,0.011792658669395498
4033.600000000017,0.011122577260457518
4033.9200000000174,0.009749741389660437
4034.2400000000175,0.007754012639279181
4034.5600000000177,0.005485596862944203
4034.880000000018,0.003401204876127135
4035.200000000018,0.0018294372677598286
4035.520000000018,0.0008514728573585161
4035.8400000000183,0.0003389578098369439
4036.1600000000185,0.00011674082178669551
4036.4800000000187,3.457055601101377e-05
4036.800000000019,8.717467271401923e-06
4037.120000000019,6.707833654200348e-08
4037.440000000019,2.2988888945787182e-46
4037.7600000000193,9.236743617143633e-157
4038.0800000000195,2.3347190192442e-309
4038.4000000000196,0.0
4038.72000000002,0.0
4039.04000000002,0.0
4039.36000000002,2.562569999645095e-258
4039.6800000000203,9.277428028240049e-184
4040.0000000000205,2.315791844429928e-122
4040.3200000000206,1.0618779046367763e-67
4040.640000000021,3.4601374457575683e-34
4040.960000000021,1.5335327810964316e-07
4041.280000000021,1.5503510881679636e-05
4041.6000000000213,6.924483181129912e-05
4041.9200000000214,0.0002487976824043417
4042.2400000000216,0.0007654505061951407
4042.560000000022,0.0020339877707935853
4042.880000000022,0.004674617074656103
4043.200000000022,0.009300597047317005
4043.5200000000223,0.016175060130147738
4043.8400000000224,0.024710919683692555
4044.1600000000226,0.03358389704714259
4044.4800000000228,0.04124187224812257
4044.800000000023,0.046638991562249744
4045.120000000023,0.04941780458708666
4045.4400000000232,0.04966604331871218
4045.7600000000234,0.047419700952873824
4046.0800000000236,0.04280309000464299
4046.4000000000237,0.03642991134505346
4046.720000000024,0.02975042067993597
4047.040000000024,0.024894371320718423
4047.3600000000242,0.02398672012751262
4047.6800000000244,0.028122712602626568
4048.0000000000246,0.036470670814909865
4048.3200000000247,0.046167623588529175
4048.640000000025,0.0532471371010684
4048.960000000025,0.05457709598565627
4049.280000000025,0.04967017969422979
4049.6000000000254,0.04121869998200402
4049.9200000000255,0.033968683003639956
4050.2400000000257,0.03262242639670247
4050.560000000026,0.03976278538922356
4050.880000000026,0.054410072720649995
4051.200000000026,0.07192337524540131
4051.5200000000264,0.08559776605064391
4051.8400000000265,0.0897720034533083
4052.1600000000267,0.08250986953723637
4052.480000000027,0.06645707268230552
4052.800000000027,0.04699799420527366
4053.120000000027,0.029380076348449902
4053.4400000000273,0.01674877857603374
4053.7600000000275,0.010055849074643266
4054.0800000000277,0.008957962430697377
4054.400000000028,0.012707946411354653
4054.720000000028,0.0203318334744623
4055.040000000028,0.030011378106775583
4055.3600000000283,0.039012229989749125
4055.6800000000285,0.04429368866003998
4056.0000000000286,0.04395405481353761
4056.320000000029,0.038151401330103356
4056.640000000029,0.029146841993116648
4056.960000000029,0.01994651626855662
4057.2800000000293,0.013036454903222762
4057.6000000000295,0.009709747975405357
4057.9200000000296,0.010251958856460602
4058.24000000003,0.014366890224775263
4058.56000000003,0.02174538492444362
4058.88000000003,0.03202762074926975
4059.2000000000303,0.04435544672036705
4059.5200000000304,0.05677772649656502
4059.8400000000306,0.06625485524675002
4060.160000000031,0.06980262108747744
4060.480000000031,0.06625197416345523
4060.800000000031,0.05727305367591644
4061.1200000000313,0.046642548497696196
4061.4400000000314,0.03850564001430754
4061.7600000000316,0.0355033345255571
4062.0800000000318,0.03797919610926062
4062.400000000032,0.04431805553343853
4062.720000000032,0.052056831601095026
4063.0400000000323,0.05888967398051858
4063.3600000000324,0.0632602414546054
4063.6800000000326,0.0644157430763931
4064.0000000000327,0.062284650097909705
4064.320000000033,0.05760225740279798
4064.640000000033,0.052217873443514785
4064.9600000000332,0.04861744142474978
4065.2800000000334,0.04879820792345873
4065.6000000000336,0.05302564411694054
4065.9200000000337,0.05956368748794576
4066.240000000034,0.0654291956624921
4066.560000000034,0.06781922383149908
4066.880000000034,0.06527567538968182
4067.2000000000344,0.05831919123078991
4067.5200000000345,0.049296136001625336
4067.8400000000347,0.041514210204999374
4068.160000000035,0.03773468616220244
4068.480000000035,0.03879374757582187
4068.800000000035,0.04312281375784201
4069.1200000000354,0.04757613605485289
4069.4400000000355,0.04906557686823041
4069.7600000000357,0.046078472348227165
4070.080000000036,0.039145674497128004
4070.400000000036,0.030162216382191118
4070.720000000036,0.02116840998538065
4071.0400000000363,0.013555620271300937
4071.3600000000365,0.007899186796795214
4071.6800000000367,0.004160745936842323
4072.000000000037,0.0019565828796397826
4072.320000000037,0.0008147115828204014
4072.640000000037,0.00029534415936845594
4072.9600000000373,9.051732625196701e-05
4073.2800000000375,2.5279956019703838e-05
4073.6000000000377,6.07666178674604e-06
4073.920000000038,6.409442220534886e-09
4074.240000000038,1.7147509663981832e-05
4074.560000000038,7.010329433406355e-05
4074.8800000000383,0.000245676709645517
4075.2000000000385,0.0007360201006235656
4075.5200000000386,0.001902546966381884
4075.840000000039,0.004208597481789141
4076.160000000039,0.007995436350241355
4076.480000000039,0.013044574049097153
4076.8000000000393,0.018277468716061306
4077.1200000000395,0.022012385252690985
4077.4400000000396,0.022892189445410202
4077.76000000004,0.020776579279527366
4078.08000000004,0.016972120985244664
4078.40000000004,0.013522109874499663
4078.7200000000403,0.012184653303487671
4079.0400000000404,0.013863482942519061
4079.3600000000406,0.01879924843509704
4079.6800000000408,0.02687678149800967
4080.000000000041,0.03763632276927881
4080.320000000041,0.05011968871756112
4080.6400000000413,0.06284949465061845
4080.9600000000414,0.07435985492421432
4081.2800000000416,0.08356598631681772
4081.6000000000417,0.08957651314476425
4081.920000000042,0.09125097758590105
4082.240000000042,0.08762908035217426
4082.5600000000422,0.0788395122987663
4082.8800000000424,0.06689326108259452
4083.2000000000426,0.05495559673565074
4083.5200000000427,0.04565778835209957
4083.840000000043,0.0398163022908465
4084.160000000043,0.03669608291534515
4084.480000000043,0.03512322698519642
4084.8000000000434,0.03438235979895068
4085.1200000000435,0.03437097300740603
4085.4400000000437,0.035206741684721446
4085.760000000044,0.037044044844010436
4086.080000000044,0.04001544631784235
4086.400000000044,0.044120567482124146
4086.7200000000444,0.04891656313820506
4087.0400000000445,0.05323841488298083
4087.3600000000447,0.05542102244229419
4087.680000000045,0.05395721557816945
4088.000000000045,0.04845837207027582
4088.320000000045,0.04003065544846752
4088.6400000000453,0.031028489390657044
4088.9600000000455,0.023863482192421626
4089.2800000000457,0.019891387766730433
4089.600000000046,0.018899187827176027
4089.920000000046,0.019569895101617826
4090.240000000046,0.02032675977229288
4090.5600000000463,0.020300189660718407
4090.8800000000465,0.019723380848082363
4091.2000000000467,0.019675673040170896
4091.520000000047,0.021298219470274098
4091.840000000047,0.024915597388204494
4092.160000000047,0.02977605833903487
4092.4800000000473,0.03451112611889952
4092.8000000000475,0.03799582185611241
4093.1200000000476,0.03997737687256644
4093.440000000048,0.041054183695281216
4093.760000000048,0.04194226317214211
4094.080000000048,0.042795545022497404
4094.4000000000483,0.04300170641868198
4094.7200000000485,0.041611759380355405
4095.0400000000486,0.038096768704247545
4095.360000000049,0.03272991970131134
4095.680000000049,0.026650465324860276
4096.000000000049,0.021553674007230947
4096.320000000049,0.019195466336373843
4096.640000000049,0.020729043547691943
4096.96000000005,0.02625559050246114
4097.28000000005,0.03462304784874122
4097.6000000000495,0.043796893168313124
4097.92000000005,0.051506826116820704
4098.240000000051,0.0559676360934477
4098.56000000005,0.05637036960796506
4098.88000000005,0.05321985799026352
4099.200000000051,0.04823078851673675
4099.520000000051,0.04353283364121825
4099.840000000051,0.04060416848214593
4100.160000000051,0.03963657632293484
4100.480000000051,0.039842635383201715
4100.800000000052,0.04036084617380424
4101.120000000052,0.04084390773225873
4101.440000000051,0.041255768662264415
4101.760000000052,0.04134023277331125
4102.080000000053,0.04041020219038267
4102.400000000052,0.03774717813278238
4102.720000000052,0.033229945150536885
4103.040000000053,0.027777152591248504
4103.360000000053,0.023106224760328344
4103.680000000053,0.02093669695869097
4104.000000000053,0.021925623742879204
4104.320000000053,0.025104112566182436
4104.640000000054,0.028165529192062496
4104.960000000054,0.02878171071026231
4105.280000000053,0.025939890530969453
4105.600000000054,0.020422065867710306
4105.920000000055,0.014180337579974297
4106.240000000054,0.009285486969561944
4106.560000000054,0.007198374981174873
4106.880000000055,0.008678217849614258
4107.200000000055,0.013841377568479533
4107.520000000055,0.021989068081784562
4107.840000000055,0.0311784948218476
4108.160000000055,0.038628359366091686
4108.480000000056,0.041936139447259116
4108.800000000056,0.04061083863173097
4109.120000000055,0.03642973437426057
4109.440000000056,0.032305862167293385
4109.760000000057,0.030159541626799537
4110.080000000056,0.029741122374905758
4110.400000000056,0.029165813706538014
4110.720000000057,0.026581492379430676
4111.040000000057,0.021607196818224747
4111.360000000057,0.015345991828818722
4111.680000000057,0.00943776590573156
4112.000000000057,0.00501195315734565
4112.320000000058,0.00232060627019555
4112.640000000058,0.0010147049166069338
4112.960000000057,0.0006609212173753941
4113.280000000058,0.0010679637646099467
4113.600000000059,0.0023597807894543323
4113.920000000058,0.004879529723057732
4114.240000000058,0.008854100444477596
4114.560000000059,0.014029579335352187
4114.880000000059,0.019415369550149608
4115.200000000059,0.023479425468558593
4115.520000000059,0.0247740825221096
4115.840000000059,0.022808731502214998
4116.16000000006,0.018283204624180482
4116.48000000006,0.01273860044816748
4116.800000000059,0.007696165120545281
4117.12000000006,0.004030729386945215
4117.4400000000605,0.0018228292428326934
4117.76000000006,0.0007117032206760733
4118.08000000006,0.00023983830407293697
4118.400000000061,6.778881432277263e-05
4118.720000000061,2.1469586534736708e-05
4119.040000000061,2.761242594312404e-05
4119.360000000061,0.00010353743360740142
4119.680000000061,0.0003362293417038473
4120.000000000062,0.000933314136593396
4120.320000000062,0.0022364835863339823
4120.640000000061,0.004586042772967274
4120.960000000062,0.00809684350670556
4121.2800000000625,0.012329675410961478
4121.600000000062,0.016314308101803243
4121.920000000062,0.01901725467482786
4122.2400000000625,0.02010197825125379
4122.560000000063,0.02018339799385292
4122.880000000063,0.020341329450362315
4123.200000000063,0.021162800901136168
4123.520000000063,0.02221590569651871
4123.840000000064,0.02239450747906351
4124.1600000000635,0.020865972299852244
4124.480000000063,0.017828496753061442
4124.800000000064,0.014508337916004206
4125.1200000000645,0.012499557349524165
4125.440000000064,0.012806497816229898
4125.760000000064,0.01532465358147289
4126.0800000000645,0.018867280852673758
4126.400000000065,0.021850903799410498
4126.720000000065,0.023125680113296753
4127.0400000000645,0.02250541189406736
4127.360000000065,0.02063583625445498
4127.680000000066,0.0186136288919044
4128.0000000000655,0.01747528742518568
4128.320000000065,0.017751162590448562
4128.640000000066,0.01906860474693728
4128.960000000066,0.02024984990766359
4129.280000000066,0.019995178407672325
4129.600000000066,0.017864889542886925
4129.9200000000665,0.014678671895531119
4130.240000000067,0.012104895063128493
4130.560000000067,0.011607080044970205
4130.8800000000665,0.01359284491218468
4131.200000000067,0.017125510800734798
4131.520000000068,0.020388881617457805
4131.840000000067,0.021691242363626993
4132.160000000067,0.02042359780596709
4132.480000000068,0.017379684265050353
4132.800000000068,0.014105162919308788
4133.120000000068,0.01186707386802141
4133.440000000068,0.01103086250733017
4133.760000000068,0.011312634927263952
4134.080000000069,0.012423244874429001
4134.400000000069,0.01444920545924283
4134.7200000000685,0.017526101798740715
4135.040000000069,0.021204812171678095
4135.36000000007,0.024360630414763235
4135.680000000069,0.025902794307359575
4136.000000000069,0.025791150802116854
4136.32000000007,0.02526301452584392
4136.64000000007,0.02589923374638171
4136.96000000007,0.02828578426677432
4137.28000000007,0.03148418620643834
4137.60000000007,0.03387468150664318
4137.920000000071,0.0345922615253005
4138.240000000071,0.0343607027078728
4138.56000000007,0.03479043078916583
4138.880000000071,0.0368399971040793
4139.200000000072,0.039765814344823194
4139.520000000071,0.04154750004821778
4139.840000000071,0.04046413883963947
4140.160000000072,0.03628951108166244
4140.480000000072,0.030235852144534246
4140.800000000072,0.023838943809445252
4141.120000000072,0.018037090149712845
4141.440000000072,0.013034704724427205
4141.760000000073,0.008813716038613936
4142.080000000073,0.00542758605843903
4142.400000000072,0.002972094437307198
4142.720000000073,0.0014260600589583712
4143.040000000074,0.000593195374113596
4143.360000000073,0.00021546172746293347
4143.680000000073,9.309502612248035e-05
4144.000000000074,0.0001205427360546257
4144.320000000074,0.0003434824121839938
4144.640000000074,0.0009579848111243484
4144.960000000074,0.0023183731466091886
4145.280000000074,0.004814334981516295
4145.600000000075,0.008570554307966586
4145.920000000075,0.013097232588992348
4146.240000000074,0.017168488870244383
4146.560000000075,0.019306159575325693
4146.880000000076,0.018622330707259188
4147.200000000075,0.015416791960320458
4147.520000000075,0.010944505428355745
4147.840000000076,0.00666615793862403
4148.160000000076,0.0034833767153429024
4148.480000000076,0.0015625130707798496
4148.800000000076,0.0005994739163622062
4149.120000000076,0.0001983711503281245
4149.440000000077,5.608683275333302e-05
4149.760000000077,1.3600650545502276e-05
4150.080000000076,2.0062160924343463e-08
4150.400000000077,5.548889872120537e-25
4150.720000000078,5.885549608329674e-54
4151.040000000077,2.350194810883309e-96
4151.360000000077,2.6328485228943904e-161
4151.680000000078,8.819254308644733e-201
4152.000000000078,2.1189322309133495e-149
4152.320000000078,3.925494805707277e-84
4152.640000000078,1.7599976778476104e-43
4152.960000000078,1.3563598163462531e-15
4153.280000000079,2.398512035909274e-06
4153.600000000079,2.7331771015161113e-05
4153.920000000078,0.00011739633817011456
4154.240000000079,0.00040278542328183825
4154.5600000000795,0.001197906423453935
4154.880000000079,0.003084149701668302
4155.200000000079,0.006838475998661686
4155.52000000008,0.013194181363910791
4155.84000000008,0.022201196962509613
4156.16000000008,0.03291454197272955
4156.48000000008,0.04352983712637602
4156.80000000008,0.052256517836218076
4157.120000000081,0.05803052868123783
4157.4400000000805,0.06073899878694946
4157.76000000008,0.06078635088987718
4158.080000000081,0.05901743820255972
4158.4000000000815,0.05674433651014832
4158.720000000081,0.055319038712393576
4159.040000000081,0.0550810039557379
4159.3600000000815,0.05480477778944593
4159.680000000082,0.05247378621856649
4160.000000000082,0.0470464900874672
4160.320000000082,0.03963755661711725
4160.640000000082,0.03315996083897599
4160.960000000083,0.030544244820630895
4161.2800000000825,0.03292431026335983
4161.600000000082,0.03882381575896034
4161.920000000083,0.0448592065841177
4162.2400000000835,0.0475069288109935
4162.560000000083,0.044932500301282166
4162.880000000083,0.03799564776880066
4163.2000000000835,0.02980336439558871
4163.520000000084,0.024441569839442442
4163.840000000084,0.025469988788395785
